# Rescaled matter transfer functions [-T_i(k)/k^2] for adiabatic (AD) mode (normalized to initial curvature=1) at redshift z=0
# for k=2.08097e-07 to 53.7839 h/Mpc,
# number of wavenumbers equal to 6856
# T_i   stands for (delta rho_i/rho_i)(k,z) with above normalization 
# The rescaling factor [-1/k^2] with k in 1/Mpc is here to match the CMBFAST/CAMB output convention
#
#
#    1:k (h/Mpc)              2:-T_cdm/k2              3:-T_b/k2                4:-T_g/k2                5:-T_ur/k2               6:-T_ncdm/k2             7:-T_tot/k2          
       2.080971126529e-07       1.989360243922e+07       1.989360243904e+07       2.652479768811e+07       0.000000000000e+00       1.989546119945e+07       6.161336914239e+06 
       8.496841585628e-07       1.989360230595e+07       1.989360230289e+07       2.652471030978e+07       0.000000000000e+00       1.989546101525e+07       6.161336867555e+06 
       1.491275160489e-06       1.989360201101e+07       1.989360200158e+07       2.652451693388e+07       0.000000000000e+00       1.989546060760e+07       6.161336764240e+06 
       2.132874391015e-06       1.989360155439e+07       1.989360153510e+07       2.652421755825e+07       0.000000000000e+00       1.989545997649e+07       6.161336604292e+06 
       2.774486122877e-06       1.989360093608e+07       1.989360090345e+07       2.652381217907e+07       0.000000000000e+00       1.989545912191e+07       6.161336387706e+06 
       3.416114629055e-06       1.989360015608e+07       1.989360010660e+07       2.652330079084e+07       0.000000000000e+00       1.989545804384e+07       6.161336114478e+06 
       4.057764182871e-06       1.989359921435e+07       1.989359914455e+07       2.652268338642e+07       0.000000000000e+00       1.989545674224e+07       6.161335784601e+06 
       4.699439058080e-06       1.989359811088e+07       1.989359801725e+07       2.652195995703e+07       0.000000000000e+00       1.989545521710e+07       6.161335398069e+06 
       5.341143528969e-06       1.989359684564e+07       1.989359672470e+07       2.652113049222e+07       0.000000000000e+00       1.989545346836e+07       6.161334954872e+06 
       5.982881870449e-06       1.989359541860e+07       1.989359526685e+07       2.652019497989e+07       0.000000000000e+00       1.989545149599e+07       6.161334455000e+06 
       6.624658358150e-06       1.989359382972e+07       1.989359364368e+07       2.651915340627e+07       0.000000000000e+00       1.989544929995e+07       6.161333898441e+06 
       7.266477268518e-06       1.989359207897e+07       1.989359185513e+07       2.651800575597e+07       0.000000000000e+00       1.989544688016e+07       6.161333285181e+06 
       7.908342878910e-06       1.989359016630e+07       1.989358990117e+07       2.651675201191e+07       0.000000000000e+00       1.989544423658e+07       6.161332615207e+06 
       8.550259467684e-06       1.989358809167e+07       1.989358778175e+07       2.651539215539e+07       0.000000000000e+00       1.989544136913e+07       6.161331888501e+06 
       9.192231314302e-06       1.989358585502e+07       1.989358549682e+07       2.651392616602e+07       0.000000000000e+00       1.989543827776e+07       6.161331105048e+06 
       9.834262699417e-06       1.989358345629e+07       1.989358304631e+07       2.651235402177e+07       0.000000000000e+00       1.989543496236e+07       6.161330264827e+06 
       1.047635790498e-05       1.989358089543e+07       1.989358043017e+07       2.651067569898e+07       0.000000000000e+00       1.989543142287e+07       6.161329367820e+06 
       1.111852121431e-05       1.989357817237e+07       1.989357764834e+07       2.650889117229e+07       0.000000000000e+00       1.989542765920e+07       6.161328414003e+06 
       1.176075691222e-05       1.989357528705e+07       1.989357470073e+07       2.650700041473e+07       0.000000000000e+00       1.989542367124e+07       6.161327403356e+06 
       1.240306928511e-05       1.989357223939e+07       1.989357158729e+07       2.650500339764e+07       0.000000000000e+00       1.989541945890e+07       6.161326335852e+06 
       1.304546262102e-05       1.989356902932e+07       1.989356830793e+07       2.650290009073e+07       0.000000000000e+00       1.989541502207e+07       6.161325211467e+06 
       1.368794120978e-05       1.989356565675e+07       1.989356486257e+07       2.650069046204e+07       0.000000000000e+00       1.989541036063e+07       6.161324030173e+06 
       1.433050934307e-05       1.989356212160e+07       1.989356125112e+07       2.649837447796e+07       0.000000000000e+00       1.989540547448e+07       6.161322791941e+06 
       1.497317131454e-05       1.989355842378e+07       1.989355747349e+07       2.649595210324e+07       0.000000000000e+00       1.989540036348e+07       6.161321496743e+06 
       1.561593141989e-05       1.989355456320e+07       1.989355352959e+07       2.649342330096e+07       0.000000000000e+00       1.989539502751e+07       6.161320144546e+06 
       1.625879395695e-05       1.989355053976e+07       1.989354941932e+07       2.649078803254e+07       0.000000000000e+00       1.989538946642e+07       6.161318735317e+06 
       1.690176322581e-05       1.989354635336e+07       1.989354514257e+07       2.648804625775e+07       0.000000000000e+00       1.989538368009e+07       6.161317269024e+06 
       1.754484352890e-05       1.989354200389e+07       1.989354069924e+07       2.648519793473e+07       0.000000000000e+00       1.989537766835e+07       6.161315745629e+06 
       1.818803917109e-05       1.989353749125e+07       1.989353608922e+07       2.648224301993e+07       0.000000000000e+00       1.989537143106e+07       6.161314165096e+06 
       1.883135445977e-05       1.989353281531e+07       1.989353131238e+07       2.647918146816e+07       0.000000000000e+00       1.989536496805e+07       6.161312527388e+06 
       1.947479370496e-05       1.989352797597e+07       1.989352636861e+07       2.647601323258e+07       0.000000000000e+00       1.989535827917e+07       6.161310832463e+06 
       2.011836121941e-05       1.989352297310e+07       1.989352125779e+07       2.647273826468e+07       0.000000000000e+00       1.989535136423e+07       6.161309080281e+06 
       2.076206131869e-05       1.989351780657e+07       1.989351597978e+07       2.646935651432e+07       0.000000000000e+00       1.989534422307e+07       6.161307270799e+06 
       2.140589832128e-05       1.989351247625e+07       1.989351053445e+07       2.646586792969e+07       0.000000000000e+00       1.989533685550e+07       6.161305403974e+06 
       2.204987654867e-05       1.989350698201e+07       1.989350492167e+07       2.646227245731e+07       0.000000000000e+00       1.989532926133e+07       6.161303479759e+06 
       2.269400032548e-05       1.989350132370e+07       1.989349914129e+07       2.645857004208e+07       0.000000000000e+00       1.989532144037e+07       6.161301498108e+06 
       2.333827397952e-05       1.989349550119e+07       1.989349319316e+07       2.645476062721e+07       0.000000000000e+00       1.989531339241e+07       6.161299458973e+06 
       2.398270184190e-05       1.989348951432e+07       1.989348707714e+07       2.645084415428e+07       0.000000000000e+00       1.989530511726e+07       6.161297362304e+06 
       2.462728824713e-05       1.989348336295e+07       1.989348079307e+07       2.644682056321e+07       0.000000000000e+00       1.989529661469e+07       6.161295208050e+06 
       2.527203753324e-05       1.989347704691e+07       1.989347434079e+07       2.644268979224e+07       0.000000000000e+00       1.989528788449e+07       6.161292996158e+06 
       2.591695404181e-05       1.989347056605e+07       1.989346772014e+07       2.643845177800e+07       0.000000000000e+00       1.989527892644e+07       6.161290726574e+06 
       2.656204211817e-05       1.989346392020e+07       1.989346093095e+07       2.643410645543e+07       0.000000000000e+00       1.989526974030e+07       6.161288399243e+06 
       2.720730611138e-05       1.989345710920e+07       1.989345397304e+07       2.642965375782e+07       0.000000000000e+00       1.989526032584e+07       6.161286014108e+06 
       2.785275037442e-05       1.989345013286e+07       1.989344684625e+07       2.642509361681e+07       0.000000000000e+00       1.989525068282e+07       6.161283571111e+06 
       2.849837926424e-05       1.989344299102e+07       1.989343955038e+07       2.642042596240e+07       0.000000000000e+00       1.989524081098e+07       6.161281070193e+06 
       2.914419714189e-05       1.989343568348e+07       1.989343208526e+07       2.641565072290e+07       0.000000000000e+00       1.989523071008e+07       6.161278511291e+06 
       2.979020837257e-05       1.989342821007e+07       1.989342445070e+07       2.641076782499e+07       0.000000000000e+00       1.989522037986e+07       6.161275894343e+06 
       3.043641732579e-05       1.989342057060e+07       1.989341664649e+07       2.640577719369e+07       0.000000000000e+00       1.989520982004e+07       6.161273219285e+06 
       3.108282837542e-05       1.989341276486e+07       1.989340867245e+07       2.640067875236e+07       0.000000000000e+00       1.989519903035e+07       6.161270486052e+06 
       3.172944589978e-05       1.989340479266e+07       1.989340052837e+07       2.639547242271e+07       0.000000000000e+00       1.989518801052e+07       6.161267694577e+06 
       3.237627428182e-05       1.989339665379e+07       1.989339221403e+07       2.639015812478e+07       0.000000000000e+00       1.989517676026e+07       6.161264844791e+06 
       3.302331790910e-05       1.989338834806e+07       1.989338372924e+07       2.638473577699e+07       0.000000000000e+00       1.989516527929e+07       6.161261936625e+06 
       3.367058117399e-05       1.989337987523e+07       1.989337507377e+07       2.637920529606e+07       0.000000000000e+00       1.989515356730e+07       6.161258970007e+06 
       3.431806847372e-05       1.989337123511e+07       1.989336624740e+07       2.637356659708e+07       0.000000000000e+00       1.989514162399e+07       6.161255944863e+06 
       3.496578421048e-05       1.989336242746e+07       1.989335724991e+07       2.636781959349e+07       0.000000000000e+00       1.989512944905e+07       6.161252861121e+06 
       3.561373279153e-05       1.989335345207e+07       1.989334808107e+07       2.636196419705e+07       0.000000000000e+00       1.989511704218e+07       6.161249718704e+06 
       3.626191862931e-05       1.989334430870e+07       1.989333874065e+07       2.635600031788e+07       0.000000000000e+00       1.989510440304e+07       6.161246517535e+06 
       3.691034614152e-05       1.989333499711e+07       1.989332922839e+07       2.634992786446e+07       0.000000000000e+00       1.989509153131e+07       6.161243257535e+06 
       3.755901975122e-05       1.989332551707e+07       1.989331954407e+07       2.634374674357e+07       0.000000000000e+00       1.989507842665e+07       6.161239938624e+06 
       3.820794388694e-05       1.989331586834e+07       1.989330968744e+07       2.633745686039e+07       0.000000000000e+00       1.989506508874e+07       6.161236560721e+06 
       3.885712298278e-05       1.989330605067e+07       1.989329965823e+07       2.633105811840e+07       0.000000000000e+00       1.989505151721e+07       6.161233123741e+06 
       3.950656147852e-05       1.989329606381e+07       1.989328945621e+07       2.632455041945e+07       0.000000000000e+00       1.989503771172e+07       6.161229627602e+06 
       4.015626381968e-05       1.989328590749e+07       1.989327908109e+07       2.631793366373e+07       0.000000000000e+00       1.989502367191e+07       6.161226072215e+06 
       4.080623445767e-05       1.989327558147e+07       1.989326853262e+07       2.631120774976e+07       0.000000000000e+00       1.989500939742e+07       6.161222457495e+06 
       4.145647784987e-05       1.989326508546e+07       1.989325781054e+07       2.630437257442e+07       0.000000000000e+00       1.989499488787e+07       6.161218783350e+06 
       4.210699845973e-05       1.989325441921e+07       1.989324691455e+07       2.629742803293e+07       0.000000000000e+00       1.989498014288e+07       6.161215049692e+06 
       4.275780075687e-05       1.989324358244e+07       1.989323584439e+07       2.629037401887e+07       0.000000000000e+00       1.989496516208e+07       6.161211256427e+06 
       4.340888921719e-05       1.989323257487e+07       1.989322459977e+07       2.628321042414e+07       0.000000000000e+00       1.989494994508e+07       6.161207403463e+06 
       4.406026832296e-05       1.989322139621e+07       1.989321318039e+07       2.627593713901e+07       0.000000000000e+00       1.989493449146e+07       6.161203490703e+06 
       4.471194256293e-05       1.989321004619e+07       1.989320158598e+07       2.626855405207e+07       0.000000000000e+00       1.989491880085e+07       6.161199518051e+06 
       4.536391643245e-05       1.989319852450e+07       1.989318981622e+07       2.626106105027e+07       0.000000000000e+00       1.989490287281e+07       6.161195485408e+06 
       4.601619443353e-05       1.989318683084e+07       1.989317787082e+07       2.625345801892e+07       0.000000000000e+00       1.989488670695e+07       6.161191392676e+06 
       4.666878107498e-05       1.989317496493e+07       1.989316574946e+07       2.624574484164e+07       0.000000000000e+00       1.989487030284e+07       6.161187239752e+06 
       4.732168087249e-05       1.989316292644e+07       1.989315345185e+07       2.623792140044e+07       0.000000000000e+00       1.989485366004e+07       6.161183026534e+06 
       4.797489834877e-05       1.989315071507e+07       1.989314097765e+07       2.622998757563e+07       0.000000000000e+00       1.989483677813e+07       6.161178752916e+06 
       4.862843803359e-05       1.989313833050e+07       1.989312832655e+07       2.622194324592e+07       0.000000000000e+00       1.989481965665e+07       6.161174418795e+06 
       4.928230446396e-05       1.989312577242e+07       1.989311549822e+07       2.621378828831e+07       0.000000000000e+00       1.989480229518e+07       6.161170024060e+06 
       4.993650218416e-05       1.989311304049e+07       1.989310249233e+07       2.620552257820e+07       0.000000000000e+00       1.989478469324e+07       6.161165568604e+06 
       5.059103574590e-05       1.989310013439e+07       1.989308930854e+07       2.619714598929e+07       0.000000000000e+00       1.989476685038e+07       6.161161052316e+06 
       5.124590970840e-05       1.989308705379e+07       1.989307594651e+07       2.618865839367e+07       0.000000000000e+00       1.989474876614e+07       6.161156475084e+06 
       5.190112863851e-05       1.989307379833e+07       1.989306240591e+07       2.618005966176e+07       0.000000000000e+00       1.989473044003e+07       6.161151836793e+06 
       5.255669711077e-05       1.989306036769e+07       1.989304868637e+07       2.617134966231e+07       0.000000000000e+00       1.989471187158e+07       6.161147137329e+06 
       5.321261970760e-05       1.989304676151e+07       1.989303478754e+07       2.616252826245e+07       0.000000000000e+00       1.989469306029e+07       6.161142376574e+06 
       5.386890101932e-05       1.989303297943e+07       1.989302070907e+07       2.615359532765e+07       0.000000000000e+00       1.989467400568e+07       6.161137554410e+06 
       5.452554564429e-05       1.989301902111e+07       1.989300645058e+07       2.614455072172e+07       0.000000000000e+00       1.989465470725e+07       6.161132670717e+06 
       5.518255818904e-05       1.989300488617e+07       1.989299201171e+07       2.613539430684e+07       0.000000000000e+00       1.989463516448e+07       6.161127725372e+06 
       5.583994326834e-05       1.989299057425e+07       1.989297739208e+07       2.612612594350e+07       0.000000000000e+00       1.989461537686e+07       6.161122718253e+06 
       5.649770550533e-05       1.989297608497e+07       1.989296259132e+07       2.611674549060e+07       0.000000000000e+00       1.989459534387e+07       6.161117649235e+06 
       5.715584953161e-05       1.989296141796e+07       1.989294760903e+07       2.610725280534e+07       0.000000000000e+00       1.989457506498e+07       6.161112518190e+06 
       5.781437998735e-05       1.989294657284e+07       1.989293244484e+07       2.609764774330e+07       0.000000000000e+00       1.989455453967e+07       6.161107324991e+06 
       5.847330152141e-05       1.989293154921e+07       1.989291709833e+07       2.608793015841e+07       0.000000000000e+00       1.989453376737e+07       6.161102069507e+06 
       5.913261879146e-05       1.989291634669e+07       1.989290156912e+07       2.607809990295e+07       0.000000000000e+00       1.989451274756e+07       6.161096751608e+06 
       5.979233646404e-05       1.989290096488e+07       1.989288585681e+07       2.606815682754e+07       0.000000000000e+00       1.989449147967e+07       6.161091371160e+06 
       6.045245921472e-05       1.989288540338e+07       1.989286996097e+07       2.605810078119e+07       0.000000000000e+00       1.989446996313e+07       6.161085928028e+06 
       6.111299172817e-05       1.989286966177e+07       1.989285388120e+07       2.604793161122e+07       0.000000000000e+00       1.989444819739e+07       6.161080422076e+06 
       6.177393869830e-05       1.989285373966e+07       1.989283761708e+07       2.603764916335e+07       0.000000000000e+00       1.989442618186e+07       6.161074853166e+06 
       6.243530482835e-05       1.989283763661e+07       1.989282116817e+07       2.602725328164e+07       0.000000000000e+00       1.989440391596e+07       6.161069221158e+06 
       6.309709483100e-05       1.989282135221e+07       1.989280453406e+07       2.601674380848e+07       0.000000000000e+00       1.989438139911e+07       6.161063525910e+06 
       6.375931342851e-05       1.989280488603e+07       1.989278771431e+07       2.600612058467e+07       0.000000000000e+00       1.989435863069e+07       6.161057767280e+06 
       6.442196535279e-05       1.989278823764e+07       1.989277070847e+07       2.599538344933e+07       0.000000000000e+00       1.989433561011e+07       6.161051945123e+06 
       6.508505534552e-05       1.989277140660e+07       1.989275351611e+07       2.598453223996e+07       0.000000000000e+00       1.989431233677e+07       6.161046059291e+06 
       6.574858815828e-05       1.989275439248e+07       1.989273613676e+07       2.597356679241e+07       0.000000000000e+00       1.989428881002e+07       6.161040109638e+06 
       6.641256855266e-05       1.989273719481e+07       1.989271856998e+07       2.596248694090e+07       0.000000000000e+00       1.989426502926e+07       6.161034096013e+06 
       6.707700130034e-05       1.989271981315e+07       1.989270081530e+07       2.595129251800e+07       0.000000000000e+00       1.989424099385e+07       6.161028018264e+06 
       6.774189118324e-05       1.989270224704e+07       1.989268287227e+07       2.593998335467e+07       0.000000000000e+00       1.989421670315e+07       6.161021876239e+06 
       6.840724299362e-05       1.989268449602e+07       1.989266474039e+07       2.592855928022e+07       0.000000000000e+00       1.989419215651e+07       6.161015669782e+06 
       6.907306153419e-05       1.989266655962e+07       1.989264641921e+07       2.591702012231e+07       0.000000000000e+00       1.989416735327e+07       6.161009398736e+06 
       6.973935161821e-05       1.989264843737e+07       1.989262790823e+07       2.590536570701e+07       0.000000000000e+00       1.989414229278e+07       6.161003062943e+06 
       7.040611806963e-05       1.989263012878e+07       1.989260920698e+07       2.589359585871e+07       0.000000000000e+00       1.989411697436e+07       6.160996662243e+06 
