# Rescaled matter transfer functions [-T_i(k)/k^2] for adiabatic (AD) mode (normalized to initial curvature=1) at redshift z=0
# for k=2.08097e-07 to 53.7894 h/Mpc,
# number of wavenumbers equal to 6855
# T_i   stands for (delta rho_i/rho_i)(k,z) with above normalization 
# The rescaling factor [-1/k^2] with k in 1/Mpc is here to match the CMBFAST/CAMB output convention
#
#
#    1:k (h/Mpc)              2:-T_cdm/k2              3:-T_b/k2                4:-T_g/k2                5:-T_ur/k2               6:-T_ncdm/k2             7:-T_tot/k2          
       2.080970270074e-07       1.989371355258e+07       1.989371355239e+07       2.652494583908e+07       0.000000000000e+00       1.989002094936e+07       6.161310695015e+06 
       8.501048320084e-07       1.989371341951e+07       1.989371341644e+07       2.652485836620e+07       0.000000000000e+00       1.989002076766e+07       6.161310648412e+06 
       1.492116599333e-06       1.989371312496e+07       1.989371311552e+07       2.652466475370e+07       0.000000000000e+00       1.989002036548e+07       6.161310545263e+06 
       2.134136609978e-06       1.989371266894e+07       1.989371264963e+07       2.652436499939e+07       0.000000000000e+00       1.989001974282e+07       6.161310385563e+06 
       2.776169145089e-06       1.989371205143e+07       1.989371201876e+07       2.652395909943e+07       0.000000000000e+00       1.989001889966e+07       6.161310169311e+06 
       3.418218486061e-06       1.989371127242e+07       1.989371122289e+07       2.652344704833e+07       0.000000000000e+00       1.989001783598e+07       6.161309896500e+06 
       4.060288914629e-06       1.989371033188e+07       1.989371026201e+07       2.652282883893e+07       0.000000000000e+00       1.989001655175e+07       6.161309567125e+06 
       4.702384712963e-06       1.989370922980e+07       1.989370913608e+07       2.652210446242e+07       0.000000000000e+00       1.989001504694e+07       6.161309181179e+06 
       5.344510163766e-06       1.989370796616e+07       1.989370784509e+07       2.652127390832e+07       0.000000000000e+00       1.989001332153e+07       6.161308738651e+06 
       5.986669550369e-06       1.989370654090e+07       1.989370638900e+07       2.652033716449e+07       0.000000000000e+00       1.989001137545e+07       6.161308239532e+06 
       6.628867156823e-06       1.989370495402e+07       1.989370476777e+07       2.651929421716e+07       0.000000000000e+00       1.989000920867e+07       6.161307683811e+06 
       7.271107267998e-06       1.989370320545e+07       1.989370298137e+07       2.651814505086e+07       0.000000000000e+00       1.989000682113e+07       6.161307071473e+06 
       7.913394169676e-06       1.989370129517e+07       1.989370102975e+07       2.651688964850e+07       0.000000000000e+00       1.989000421277e+07       6.161306402504e+06 
       8.555732148648e-06       1.989369922312e+07       1.989369891287e+07       2.651552799129e+07       0.000000000000e+00       1.989000138353e+07       6.161305676888e+06 
       9.198125492806e-06       1.989369698925e+07       1.989369663066e+07       2.651406005883e+07       0.000000000000e+00       1.988999833333e+07       6.161304894608e+06 
       9.840578491244e-06       1.989369459351e+07       1.989369418308e+07       2.651248582901e+07       0.000000000000e+00       1.988999506210e+07       6.161304055646e+06 
       1.048309543435e-05       1.989369203583e+07       1.989369157007e+07       2.651080527811e+07       0.000000000000e+00       1.988999156975e+07       6.161303159980e+06 
       1.112568061389e-05       1.989368931615e+07       1.989368879155e+07       2.650901838071e+07       0.000000000000e+00       1.988998785620e+07       6.161302207590e+06 
       1.176833832314e-05       1.989368643441e+07       1.989368584746e+07       2.650712510976e+07       0.000000000000e+00       1.988998392134e+07       6.161301198452e+06 
       1.241107285694e-05       1.989368339053e+07       1.989368273772e+07       2.650512543653e+07       0.000000000000e+00       1.988997976510e+07       6.161300132543e+06 
       1.305388851180e-05       1.989368018443e+07       1.989367946226e+07       2.650301933065e+07       0.000000000000e+00       1.988997538734e+07       6.161299009836e+06 
       1.369678958601e-05       1.989367681604e+07       1.989367602099e+07       2.650080676009e+07       0.000000000000e+00       1.988997078798e+07       6.161297830305e+06 
       1.433978037974e-05       1.989367328526e+07       1.989367241383e+07       2.649848769114e+07       0.000000000000e+00       1.988996596688e+07       6.161296593920e+06 
       1.498286519510e-05       1.989366959202e+07       1.989366864069e+07       2.649606208845e+07       0.000000000000e+00       1.988996092393e+07       6.161295300652e+06 
       1.562604833628e-05       1.989366573621e+07       1.989366470147e+07       2.649352991501e+07       0.000000000000e+00       1.988995565899e+07       6.161293950470e+06 
       1.626933410961e-05       1.989366171774e+07       1.989366059608e+07       2.649089113214e+07       0.000000000000e+00       1.988995017193e+07       6.161292543341e+06 
       1.691272682369e-05       1.989365753651e+07       1.989365632440e+07       2.648814569952e+07       0.000000000000e+00       1.988994446262e+07       6.161291079231e+06 
       1.755623078944e-05       1.989365319242e+07       1.989365188633e+07       2.648529357516e+07       0.000000000000e+00       1.988993853091e+07       6.161289558103e+06 
       1.819985032025e-05       1.989364868534e+07       1.989364728177e+07       2.648233471539e+07       0.000000000000e+00       1.988993237664e+07       6.161287979923e+06 
       1.884358973203e-05       1.989364401517e+07       1.989364251059e+07       2.647926907493e+07       0.000000000000e+00       1.988992599965e+07       6.161286344650e+06 
       1.948745334336e-05       1.989363918180e+07       1.989363757267e+07       2.647609660679e+07       0.000000000000e+00       1.988991939980e+07       6.161284652245e+06 
       2.013144547550e-05       1.989363418509e+07       1.989363246790e+07       2.647281726236e+07       0.000000000000e+00       1.988991257689e+07       6.161282902668e+06 
       2.077557045259e-05       1.989362902492e+07       1.989362719613e+07       2.646943099134e+07       0.000000000000e+00       1.988990553077e+07       6.161281095875e+06 
       2.141983260166e-05       1.989362370117e+07       1.989362175724e+07       2.646593774179e+07       0.000000000000e+00       1.988989826125e+07       6.161279231822e+06 
       2.206423625279e-05       1.989361821368e+07       1.989361615108e+07       2.646233746011e+07       0.000000000000e+00       1.988989076814e+07       6.161277310465e+06 
       2.270878573916e-05       1.989361256234e+07       1.989361037753e+07       2.645863009103e+07       0.000000000000e+00       1.988988305125e+07       6.161275331756e+06 
       2.335348539717e-05       1.989360674698e+07       1.989360443642e+07       2.645481557764e+07       0.000000000000e+00       1.988987511039e+07       6.161273295647e+06 
       2.399833956655e-05       1.989360076748e+07       1.989359832761e+07       2.645089386134e+07       0.000000000000e+00       1.988986694534e+07       6.161271202088e+06 
       2.464335259042e-05       1.989359462366e+07       1.989359205095e+07       2.644686488190e+07       0.000000000000e+00       1.988985855591e+07       6.161269051028e+06 
       2.528852881542e-05       1.989358831538e+07       1.989358560628e+07       2.644272857742e+07       0.000000000000e+00       1.988984994186e+07       6.161266842415e+06 
       2.593387259179e-05       1.989358184247e+07       1.989357899342e+07       2.643848488433e+07       0.000000000000e+00       1.988984110299e+07       6.161264576195e+06 
       2.657938827348e-05       1.989357520478e+07       1.989357221223e+07       2.643413373741e+07       0.000000000000e+00       1.988983203907e+07       6.161262252312e+06 
       2.722508021824e-05       1.989356840213e+07       1.989356526251e+07       2.642967506979e+07       0.000000000000e+00       1.988982274985e+07       6.161259870710e+06 
       2.787095278770e-05       1.989356143434e+07       1.989355814410e+07       2.642510881292e+07       0.000000000000e+00       1.988981323511e+07       6.161257431330e+06 
       2.851701034752e-05       1.989355430125e+07       1.989355085681e+07       2.642043489661e+07       0.000000000000e+00       1.988980349460e+07       6.161254934112e+06 
       2.916325726743e-05       1.989354700266e+07       1.989354340046e+07       2.641565324899e+07       0.000000000000e+00       1.988979352806e+07       6.161252378996e+06 
       2.980969792136e-05       1.989353953840e+07       1.989353577487e+07       2.641076379655e+07       0.000000000000e+00       1.988978333523e+07       6.161249765919e+06 
       3.045633668753e-05       1.989353190827e+07       1.989352797982e+07       2.640576646411e+07       0.000000000000e+00       1.988977291587e+07       6.161247094816e+06 
       3.110317794856e-05       1.989352411208e+07       1.989352001514e+07       2.640066117483e+07       0.000000000000e+00       1.988976226969e+07       6.161244365623e+06 
       3.175022609155e-05       1.989351614962e+07       1.989351188060e+07       2.639544785021e+07       0.000000000000e+00       1.988975139642e+07       6.161241578272e+06 
       3.239748550819e-05       1.989350802070e+07       1.989350357602e+07       2.639012641009e+07       0.000000000000e+00       1.988974029578e+07       6.161238732695e+06 
       3.304496059485e-05       1.989349972510e+07       1.989349510117e+07       2.638469677266e+07       0.000000000000e+00       1.988972896749e+07       6.161235828822e+06 
       3.369265575269e-05       1.989349126262e+07       1.989348645583e+07       2.637915885443e+07       0.000000000000e+00       1.988971741125e+07       6.161232866581e+06 
       3.434057538776e-05       1.989348263303e+07       1.989347763980e+07       2.637351257028e+07       0.000000000000e+00       1.988970562676e+07       6.161229845901e+06 
       3.498872391110e-05       1.989347383612e+07       1.989346865283e+07       2.636775783340e+07       0.000000000000e+00       1.988969361371e+07       6.161226766706e+06 
       3.563710573881e-05       1.989346487166e+07       1.989345949471e+07       2.636189455533e+07       0.000000000000e+00       1.988968137180e+07       6.161223628921e+06 
       3.628572529221e-05       1.989345573943e+07       1.989345016520e+07       2.635592264596e+07       0.000000000000e+00       1.988966890071e+07       6.161220432469e+06 
       3.693458699787e-05       1.989344643917e+07       1.989344066405e+07       2.634984201352e+07       0.000000000000e+00       1.988965620011e+07       6.161217177271e+06 
       3.758369528776e-05       1.989343697067e+07       1.989343099103e+07       2.634365256455e+07       0.000000000000e+00       1.988964326968e+07       6.161213863247e+06 
       3.823305459934e-05       1.989342733367e+07       1.989342114590e+07       2.633735420398e+07       0.000000000000e+00       1.988963010907e+07       6.161210490315e+06 
       3.888266937566e-05       1.989341752793e+07       1.989341112838e+07       2.633094683504e+07       0.000000000000e+00       1.988961671795e+07       6.161207058392e+06 
       3.953254406543e-05       1.989340755319e+07       1.989340093824e+07       2.632443035931e+07       0.000000000000e+00       1.988960309598e+07       6.161203567393e+06 
       4.018268312318e-05       1.989339740920e+07       1.989339057521e+07       2.631780467673e+07       0.000000000000e+00       1.988958924279e+07       6.161200017233e+06 
       4.083309100931e-05       1.989338709570e+07       1.989338003902e+07       2.631106968555e+07       0.000000000000e+00       1.988957515802e+07       6.161196407823e+06 
       4.148377219020e-05       1.989337661242e+07       1.989336932940e+07       2.630422528239e+07       0.000000000000e+00       1.988956084131e+07       6.161192739075e+06 
       4.213473113836e-05       1.989336595909e+07       1.989335844608e+07       2.629727136218e+07       0.000000000000e+00       1.988954629229e+07       6.161189010898e+06 
       4.278597233246e-05       1.989335513544e+07       1.989334738877e+07       2.629020781823e+07       0.000000000000e+00       1.988953151058e+07       6.161185223200e+06 
       4.343750025747e-05       1.989334414119e+07       1.989333615720e+07       2.628303454215e+07       0.000000000000e+00       1.988951649578e+07       6.161181375886e+06 
       4.408931940478e-05       1.989333297606e+07       1.989332475108e+07       2.627575142391e+07       0.000000000000e+00       1.988950124752e+07       6.161177468863e+06 
       4.474143427225e-05       1.989332163974e+07       1.989331317010e+07       2.626835835184e+07       0.000000000000e+00       1.988948576539e+07       6.161173502032e+06 
       4.539384936437e-05       1.989331013197e+07       1.989330141398e+07       2.626085521257e+07       0.000000000000e+00       1.988947004899e+07       6.161169475297e+06 
       4.604656919232e-05       1.989329845243e+07       1.989328948240e+07       2.625324189111e+07       0.000000000000e+00       1.988945409790e+07       6.161165388556e+06 
       4.669959827409e-05       1.989328660082e+07       1.989327737507e+07       2.624551827078e+07       0.000000000000e+00       1.988943791172e+07       6.161161241710e+06 
       4.735294113461e-05       1.989327457685e+07       1.989326509167e+07       2.623768423328e+07       0.000000000000e+00       1.988942149001e+07       6.161157034654e+06 
       4.800660230579e-05       1.989326238019e+07       1.989325263188e+07       2.622973965862e+07       0.000000000000e+00       1.988940483235e+07       6.161152767284e+06 
       4.866058632667e-05       1.989325001053e+07       1.989323999539e+07       2.622168442515e+07       0.000000000000e+00       1.988938793831e+07       6.161148439496e+06 
       4.931489774354e-05       1.989323746755e+07       1.989322718186e+07       2.621351840960e+07       0.000000000000e+00       1.988937080743e+07       6.161144051180e+06 
       4.996954110999e-05       1.989322475092e+07       1.989321419096e+07       2.620524148700e+07       0.000000000000e+00       1.988935343927e+07       6.161139602228e+06 
       5.062452098707e-05       1.989321186033e+07       1.989320102236e+07       2.619685353075e+07       0.000000000000e+00       1.988933583338e+07       6.161135092529e+06 
       5.127984194334e-05       1.989319879542e+07       1.989318767571e+07       2.618835441258e+07       0.000000000000e+00       1.988931798929e+07       6.161130521972e+06 
       5.193550855502e-05       1.989318555587e+07       1.989317415068e+07       2.617974400258e+07       0.000000000000e+00       1.988929990653e+07       6.161125890442e+06 
       5.259152540609e-05       1.989317214132e+07       1.989316044691e+07       2.617102216916e+07       0.000000000000e+00       1.988928158464e+07       6.161121197823e+06 
       5.324789708837e-05       1.989315855143e+07       1.989314656405e+07       2.616218877910e+07       0.000000000000e+00       1.988926302312e+07       6.161116444000e+06 
       5.390462820166e-05       1.989314478585e+07       1.989313250173e+07       2.615324369751e+07       0.000000000000e+00       1.988924422149e+07       6.161111628853e+06 
       5.456172335380e-05       1.989313084421e+07       1.989311825959e+07       2.614418678785e+07       0.000000000000e+00       1.988922517926e+07       6.161106752263e+06 
       5.521918716082e-05       1.989311672616e+07       1.989310383726e+07       2.613501791193e+07       0.000000000000e+00       1.988920589592e+07       6.161101814106e+06 
       5.587702424705e-05       1.989310243133e+07       1.989308923437e+07       2.612573692990e+07       0.000000000000e+00       1.988918637097e+07       6.161096814262e+06 
       5.653523924518e-05       1.989308795934e+07       1.989307445053e+07       2.611634370025e+07       0.000000000000e+00       1.988916660388e+07       6.161091752603e+06 
       5.719383679641e-05       1.989307330981e+07       1.989305948537e+07       2.610683807983e+07       0.000000000000e+00       1.988914659415e+07       6.161086629004e+06 
       5.785282155055e-05       1.989305848237e+07       1.989304433849e+07       2.609721992385e+07       0.000000000000e+00       1.988912634123e+07       6.161081443336e+06 
       5.851219816610e-05       1.989304347663e+07       1.989302900949e+07       2.608748908583e+07       0.000000000000e+00       1.988910584460e+07       6.161076195471e+06 
       5.917197131041e-05       1.989302829218e+07       1.989301349799e+07       2.607764541768e+07       0.000000000000e+00       1.988908510372e+07       6.161070885275e+06 
       5.983214565975e-05       1.989301292865e+07       1.989299780357e+07       2.606768876963e+07       0.000000000000e+00       1.988906411802e+07       6.161065512616e+06 
       6.049272589940e-05       1.989299738562e+07       1.989298192582e+07       2.605761899029e+07       0.000000000000e+00       1.988904288697e+07       6.161060077360e+06 
       6.115371672384e-05       1.989298166268e+07       1.989296586433e+07       2.604743592658e+07       0.000000000000e+00       1.988902141000e+07       6.161054579370e+06 
       6.181512283676e-05       1.989296575943e+07       1.989294961868e+07       2.603713942382e+07       0.000000000000e+00       1.988899968653e+07       6.161049018507e+06 
       6.247694895125e-05       1.989294967545e+07       1.989293318845e+07       2.602672932564e+07       0.000000000000e+00       1.988897771599e+07       6.161043394633e+06 
       6.313919978986e-05       1.989293341032e+07       1.989291657320e+07       2.601620547406e+07       0.000000000000e+00       1.988895549780e+07       6.161037707605e+06 
       6.380188008473e-05       1.989291696360e+07       1.989289977250e+07       2.600556770942e+07       0.000000000000e+00       1.988893303137e+07       6.161031957281e+06 
       6.446499457770e-05       1.989290033487e+07       1.989288278590e+07       2.599481587044e+07       0.000000000000e+00       1.988891031610e+07       6.161026143516e+06 
       6.512854802043e-05       1.989288352369e+07       1.989286561298e+07       2.598394979419e+07       0.000000000000e+00       1.988888735139e+07       6.161020266164e+06 
       6.579254517450e-05       1.989286652961e+07       1.989284825326e+07       2.597296931609e+07       0.000000000000e+00       1.988886413662e+07       6.161014325075e+06 
       6.645699081151e-05       1.989284935219e+07       1.989283070631e+07       2.596187426993e+07       0.000000000000e+00       1.988884067118e+07       6.161008320102e+06 
       6.712188971322e-05       1.989283199098e+07       1.989281297165e+07       2.595066448785e+07       0.000000000000e+00       1.988881695444e+07       6.161002251091e+06 
       6.778724667165e-05       1.989281444552e+07       1.989279504882e+07       2.593933980034e+07       0.000000000000e+00       1.988879298577e+07       6.160996117890e+06 
       6.845306648918e-05       1.989279671534e+07       1.989277693734e+07       2.592790003628e+07       0.000000000000e+00       1.988876876453e+07       6.160989920344e+06 
       6.911935397870e-05       1.989277879998e+07       1.989275863675e+07       2.591634502289e+07       0.000000000000e+00       1.988874429007e+07       6.160983658295e+06 
       6.978611396367e-05       1.989276069896e+07       1.989274014656e+07       2.590467458576e+07       0.000000000000e+00       1.988871956173e+07       6.160977331586e+06 
       7.045335127828e-05       1.989274241181e+07       1.989272146628e+07       2.589288854884e+07       0.000000000000e+00       1.988869457886e+07       6.160970940057e+06 
