# Rescaled matter transfer functions [-T_i(k)/k^2] for adiabatic (AD) mode (normalized to initial curvature=1) at redshift z=0
# for k=2.08095e-07 to 53.8182 h/Mpc,
# number of wavenumbers equal to 6856
# T_i   stands for (delta rho_i/rho_i)(k,z) with above normalization 
# The rescaling factor [-1/k^2] with k in 1/Mpc is here to match the CMBFAST/CAMB output convention
#
#
#    1:k (h/Mpc)              2:-T_cdm/k2              3:-T_b/k2                4:-T_g/k2                5:-T_ur/k2               6:-T_ncdm/k2             7:-T_tot/k2          
       2.080952177336e-07       1.989371388693e+07       1.989371388675e+07       2.652494628496e+07       0.000000000000e+00       1.989002073565e+07       6.161310792582e+06 
       8.499145692892e-07       1.989371375401e+07       1.989371375095e+07       2.652485885349e+07       0.000000000000e+00       1.989002055436e+07       6.161310746033e+06 
       1.491737880330e-06       1.989371345983e+07       1.989371345040e+07       2.652466534453e+07       0.000000000000e+00       1.989002015312e+07       6.161310643008e+06 
       2.133569428084e-06       1.989371300438e+07       1.989371298508e+07       2.652436575589e+07       0.000000000000e+00       1.989001953192e+07       6.161310483504e+06 
       2.775413489928e-06       1.989371238765e+07       1.989371235500e+07       2.652396008375e+07       0.000000000000e+00       1.989001869075e+07       6.161310267518e+06 
       3.417274343488e-06       1.989371160962e+07       1.989371156012e+07       2.652344832261e+07       0.000000000000e+00       1.989001762958e+07       6.161309995046e+06 
       4.059156266728e-06       1.989371067028e+07       1.989371060044e+07       2.652283046532e+07       0.000000000000e+00       1.989001634840e+07       6.161309666080e+06 
       4.701063538048e-06       1.989370956961e+07       1.989370947592e+07       2.652210650308e+07       0.000000000000e+00       1.989001484716e+07       6.161309280614e+06 
       5.343000436381e-06       1.989370830757e+07       1.989370818655e+07       2.652127642543e+07       0.000000000000e+00       1.989001312583e+07       6.161308838639e+06 
       5.984971241284e-06       1.989370688413e+07       1.989370673229e+07       2.652034022025e+07       0.000000000000e+00       1.989001118437e+07       6.161308340143e+06 
       6.626980233037e-06       1.989370529927e+07       1.989370511311e+07       2.651929787376e+07       0.000000000000e+00       1.989000902274e+07       6.161307785116e+06 
       7.269031692734e-06       1.989370355294e+07       1.989370332896e+07       2.651814937053e+07       0.000000000000e+00       1.989000664087e+07       6.161307173543e+06 
       7.911129902383e-06       1.989370164510e+07       1.989370137980e+07       2.651689469348e+07       0.000000000000e+00       1.989000403871e+07       6.161306505411e+06 
       8.553279144995e-06       1.989369957570e+07       1.989369926559e+07       2.651553382385e+07       0.000000000000e+00       1.989000121619e+07       6.161305780704e+06 
       9.195483704687e-06       1.989369734468e+07       1.989369698626e+07       2.651406674125e+07       0.000000000000e+00       1.988999817324e+07       6.161304999404e+06 
       9.837747866771e-06       1.989369495201e+07       1.989369454177e+07       2.651249342361e+07       0.000000000000e+00       1.988999490978e+07       6.161304161493e+06 
       1.048007591785e-05       1.989369239760e+07       1.989369193206e+07       2.651081384723e+07       0.000000000000e+00       1.988999142574e+07       6.161303266950e+06 
       1.112247214592e-05       1.989368968141e+07       1.989368915705e+07       2.650902798672e+07       0.000000000000e+00       1.988998772102e+07       6.161302315754e+06 
       1.176494084044e-05       1.989368680336e+07       1.989368621668e+07       2.650713581506e+07       0.000000000000e+00       1.988998379553e+07       6.161301307882e+06 
       1.240748629249e-05       1.989368376337e+07       1.989368311087e+07       2.650513730356e+07       0.000000000000e+00       1.988997964917e+07       6.161300243309e+06 
       1.305011279477e-05       1.989368056139e+07       1.989367983955e+07       2.650303242189e+07       0.000000000000e+00       1.988997528183e+07       6.161299122011e+06 
       1.369282464180e-05       1.989367719731e+07       1.989367640264e+07       2.650082113803e+07       0.000000000000e+00       1.988997069341e+07       6.161297943960e+06 
       1.433562612993e-05       1.989367367106e+07       1.989367280004e+07       2.649850341834e+07       0.000000000000e+00       1.988996588379e+07       6.161296709128e+06 
       1.497852155748e-05       1.989366998256e+07       1.989366903167e+07       2.649607922751e+07       0.000000000000e+00       1.988996085284e+07       6.161295417484e+06 
       1.562151522484e-05       1.989366613169e+07       1.989366509744e+07       2.649354852855e+07       0.000000000000e+00       1.988995560044e+07       6.161294068998e+06 
       1.626461143453e-05       1.989366211838e+07       1.989366099724e+07       2.649091128284e+07       0.000000000000e+00       1.988995012645e+07       6.161292663637e+06 
       1.690781449133e-05       1.989365794252e+07       1.989365673097e+07       2.648816745011e+07       0.000000000000e+00       1.988994443073e+07       6.161291201367e+06 
       1.755112870237e-05       1.989365360400e+07       1.989365229853e+07       2.648531698840e+07       0.000000000000e+00       1.988993851314e+07       6.161289682151e+06 
       1.819455837722e-05       1.989364910271e+07       1.989364769980e+07       2.648235985413e+07       0.000000000000e+00       1.988993237353e+07       6.161288105955e+06 
       1.883810782797e-05       1.989364443854e+07       1.989364293466e+07       2.647929600202e+07       0.000000000000e+00       1.988992601174e+07       6.161286472738e+06 
       1.948178136935e-05       1.989363961137e+07       1.989363800300e+07       2.647612538518e+07       0.000000000000e+00       1.988991942761e+07       6.161284782462e+06 
       2.012558331883e-05       1.989363462108e+07       1.989363290469e+07       2.647284795504e+07       0.000000000000e+00       1.988991262096e+07       6.161283035086e+06 
       2.076951799670e-05       1.989362946755e+07       1.989362763961e+07       2.646946366136e+07       0.000000000000e+00       1.988990559163e+07       6.161281230566e+06 
       2.141358972616e-05       1.989362415063e+07       1.989362220761e+07       2.646597245226e+07       0.000000000000e+00       1.988989833943e+07       6.161279368860e+06 
       2.205780283344e-05       1.989361867020e+07       1.989361660857e+07       2.646237427419e+07       0.000000000000e+00       1.988989086418e+07       6.161277449921e+06 
       2.270216164788e-05       1.989361302612e+07       1.989361084234e+07       2.645866907198e+07       0.000000000000e+00       1.988988316569e+07       6.161275473703e+06 
       2.334667050204e-05       1.989360721825e+07       1.989360490877e+07       2.645485678874e+07       0.000000000000e+00       1.988987524376e+07       6.161273440158e+06 
       2.399133373178e-05       1.989360124643e+07       1.989359880771e+07       2.645093736598e+07       0.000000000000e+00       1.988986709818e+07       6.161271349236e+06 
       2.463615567638e-05       1.989359511051e+07       1.989359253902e+07       2.644691074351e+07       0.000000000000e+00       1.988985872875e+07       6.161269200886e+06 
       2.528114067860e-05       1.989358881035e+07       1.989358610253e+07       2.644277685952e+07       0.000000000000e+00       1.988985013525e+07       6.161266995056e+06 
       2.592629308481e-05       1.989358234578e+07       1.989357949807e+07       2.643853565051e+07       0.000000000000e+00       1.988984131746e+07       6.161264731692e+06 
       2.657161724509e-05       1.989357571662e+07       1.989357272548e+07       2.643418705134e+07       0.000000000000e+00       1.988983227515e+07       6.161262410738e+06 
       2.721711751331e-05       1.989356892273e+07       1.989356578460e+07       2.642973099521e+07       0.000000000000e+00       1.988982300810e+07       6.161260032139e+06 
       2.786279824721e-05       1.989356196392e+07       1.989355867523e+07       2.642516741366e+07       0.000000000000e+00       1.988981351606e+07       6.161257595835e+06 
       2.850866380856e-05       1.989355484001e+07       1.989355139721e+07       2.642049623657e+07       0.000000000000e+00       1.988980379878e+07       6.161255101768e+06 
       2.915471856320e-05       1.989354755083e+07       1.989354395034e+07       2.641571739217e+07       0.000000000000e+00       1.988979385603e+07       6.161252549875e+06 
       2.980096688114e-05       1.989354009619e+07       1.989353633443e+07       2.641083080702e+07       0.000000000000e+00       1.988978368754e+07       6.161249940095e+06 
       3.044741313670e-05       1.989353247589e+07       1.989352854930e+07       2.640583640604e+07       0.000000000000e+00       1.988977329304e+07       6.161247272364e+06 
       3.109406170858e-05       1.989352468975e+07       1.989352059475e+07       2.640073411247e+07       0.000000000000e+00       1.988976267228e+07       6.161244546616e+06 
       3.174091697995e-05       1.989351673756e+07       1.989351247056e+07       2.639552384791e+07       0.000000000000e+00       1.988975182497e+07       6.161241762785e+06 
       3.238798333857e-05       1.989350861912e+07       1.989350417655e+07       2.639020553230e+07       0.000000000000e+00       1.988974075084e+07       6.161238920802e+06 
       3.303526517689e-05       1.989350033422e+07       1.989349571248e+07       2.638477908390e+07       0.000000000000e+00       1.988972944960e+07       6.161236020598e+06 
       3.368276689210e-05       1.989349188266e+07       1.989348707815e+07       2.637924441936e+07       0.000000000000e+00       1.988971792096e+07       6.161233062101e+06 
       3.433049288632e-05       1.989348326421e+07       1.989347827334e+07       2.637360145361e+07       0.000000000000e+00       1.988970616462e+07       6.161230045238e+06 
       3.497844756662e-05       1.989347447866e+07       1.989346929783e+07       2.636785009998e+07       0.000000000000e+00       1.988969418028e+07       6.161226969937e+06 
       3.562663534514e-05       1.989346552577e+07       1.989346015137e+07       2.636199027010e+07       0.000000000000e+00       1.988968196762e+07       6.161223836120e+06 
       3.627506063921e-05       1.989345640533e+07       1.989345083375e+07       2.635602187397e+07       0.000000000000e+00       1.988966952633e+07       6.161220643711e+06 
       3.692372787143e-05       1.989344711709e+07       1.989344134472e+07       2.634994481991e+07       0.000000000000e+00       1.988965685609e+07       6.161217392631e+06 
       3.757264146979e-05       1.989343766083e+07       1.989343168403e+07       2.634375901460e+07       0.000000000000e+00       1.988964395657e+07       6.161214082801e+06 
       3.822180586774e-05       1.989342803628e+07       1.989342185145e+07       2.633746436306e+07       0.000000000000e+00       1.988963082743e+07       6.161210714139e+06 
       3.887122550432e-05       1.989341824322e+07       1.989341184672e+07       2.633106076863e+07       0.000000000000e+00       1.988961746833e+07       6.161207286562e+06 
       3.952090482423e-05       1.989340828138e+07       1.989340166958e+07       2.632454813302e+07       0.000000000000e+00       1.988960387893e+07       6.161203799985e+06 
       4.017084827798e-05       1.989339815051e+07       1.989339131977e+07       2.631792635628e+07       0.000000000000e+00       1.988959005888e+07       6.161200254323e+06 
       4.082106032193e-05       1.989338785036e+07       1.989338079703e+07       2.631119533679e+07       0.000000000000e+00       1.988957600780e+07       6.161196649487e+06 
       4.147154541844e-05       1.989337738064e+07       1.989337010109e+07       2.630435497126e+07       0.000000000000e+00       1.988956172535e+07       6.161192985390e+06 
       4.212230803594e-05       1.989336674111e+07       1.989335923167e+07       2.629740515479e+07       0.000000000000e+00       1.988954721115e+07       6.161189261940e+06 
       4.277335264906e-05       1.989335593147e+07       1.989334818850e+07       2.629034578077e+07       0.000000000000e+00       1.988953246481e+07       6.161185479045e+06 
       4.342468373871e-05       1.989334495146e+07       1.989333697128e+07       2.628317674096e+07       0.000000000000e+00       1.988951748596e+07       6.161181636613e+06 
       4.407630579217e-05       1.989333380079e+07       1.989332557974e+07       2.627589792547e+07       0.000000000000e+00       1.988950227420e+07       6.161177734548e+06 
       4.472822330325e-05       1.989332247918e+07       1.989331401357e+07       2.626850922273e+07       0.000000000000e+00       1.988948682914e+07       6.161173772753e+06 
       4.538044077232e-05       1.989331098632e+07       1.989330227249e+07       2.626101051953e+07       0.000000000000e+00       1.988947115038e+07       6.161169751131e+06 
       4.603296270647e-05       1.989329932192e+07       1.989329035619e+07       2.625340170100e+07       0.000000000000e+00       1.988945523750e+07       6.161165669581e+06 
       4.668579361956e-05       1.989328748569e+07       1.989327826435e+07       2.624568265061e+07       0.000000000000e+00       1.988943909010e+07       6.161161528004e+06 
       4.733893803239e-05       1.989327547732e+07       1.989326599668e+07       2.623785325019e+07       0.000000000000e+00       1.988942270774e+07       6.161157326295e+06 
       4.799240047274e-05       1.989326329649e+07       1.989325355285e+07       2.622991337988e+07       0.000000000000e+00       1.988940609000e+07       6.161153064351e+06 
       4.864618547551e-05       1.989325094289e+07       1.989324093255e+07       2.622186291819e+07       0.000000000000e+00       1.988938923645e+07       6.161148742067e+06 
       4.930029758282e-05       1.989323841620e+07       1.989322813544e+07       2.621370174199e+07       0.000000000000e+00       1.988937214664e+07       6.161144359334e+06 
       4.995474134409e-05       1.989322571610e+07       1.989321516119e+07       2.620542972645e+07       0.000000000000e+00       1.988935482013e+07       6.161139916044e+06 
       5.060952131618e-05       1.989321284226e+07       1.989320200948e+07       2.619704674513e+07       0.000000000000e+00       1.988933725646e+07       6.161135412086e+06 
       5.126464206348e-05       1.989319979434e+07       1.989318867996e+07       2.618855266990e+07       0.000000000000e+00       1.988931945517e+07       6.161130847349e+06 
       5.192010815800e-05       1.989318657200e+07       1.989317517229e+07       2.617994737101e+07       0.000000000000e+00       1.988930141580e+07       6.161126221719e+06 
       5.257592417950e-05       1.989317317491e+07       1.989316148611e+07       2.617123071702e+07       0.000000000000e+00       1.988928313787e+07       6.161121535081e+06 
       5.323209471557e-05       1.989315960270e+07       1.989314762107e+07       2.616240257486e+07       0.000000000000e+00       1.988926462090e+07       6.161116787318e+06 
       5.388862436178e-05       1.989314585504e+07       1.989313357682e+07       2.615346280982e+07       0.000000000000e+00       1.988924586441e+07       6.161111978311e+06 
       5.454551772171e-05       1.989313193156e+07       1.989311935298e+07       2.614441128549e+07       0.000000000000e+00       1.988922686790e+07       6.161107107942e+06 
       5.520277940715e-05       1.989311783191e+07       1.989310494920e+07       2.613524786386e+07       0.000000000000e+00       1.988920763086e+07       6.161102176087e+06 
       5.586041403813e-05       1.989310355570e+07       1.989309036508e+07       2.612597240524e+07       0.000000000000e+00       1.988918815281e+07       6.161097182625e+06 
       5.651842624307e-05       1.989308910258e+07       1.989307560027e+07       2.611658476829e+07       0.000000000000e+00       1.988916843321e+07       6.161092127431e+06 
       5.717682065886e-05       1.989307447216e+07       1.989306065436e+07       2.610708481003e+07       0.000000000000e+00       1.988914847156e+07       6.161087010377e+06 
       5.783560193100e-05       1.989305966406e+07       1.989304552698e+07       2.609747238582e+07       0.000000000000e+00       1.988912826732e+07       6.161081831337e+06 
       5.849477471367e-05       1.989304467790e+07       1.989303021773e+07       2.608774734938e+07       0.000000000000e+00       1.988910781996e+07       6.161076590181e+06 
       5.915434366987e-05       1.989302951328e+07       1.989301472621e+07       2.607790955278e+07       0.000000000000e+00       1.988908712894e+07       6.161071286776e+06 
       5.981431347152e-05       1.989301416981e+07       1.989299905202e+07       2.606795884642e+07       0.000000000000e+00       1.988906619372e+07       6.161065920992e+06 
       6.047468879955e-05       1.989299864708e+07       1.989298319474e+07       2.605789507909e+07       0.000000000000e+00       1.988904501374e+07       6.161060492692e+06 
       6.113547434405e-05       1.989298294470e+07       1.989296715397e+07       2.604771809790e+07       0.000000000000e+00       1.988902358843e+07       6.161055001742e+06 
       6.179667480431e-05       1.989296706224e+07       1.989295092928e+07       2.603742774834e+07       0.000000000000e+00       1.988900191724e+07       6.161049448003e+06 
       6.245829488902e-05       1.989295099930e+07       1.989293452026e+07       2.602702387423e+07       0.000000000000e+00       1.988897999959e+07       6.161043831335e+06 
       6.312033931631e-05       1.989293475545e+07       1.989291792646e+07       2.601650631776e+07       0.000000000000e+00       1.988895783489e+07       6.161038151598e+06 
       6.378281281388e-05       1.989291833026e+07       1.989290114747e+07       2.600587491948e+07       0.000000000000e+00       1.988893542256e+07       6.161032408649e+06 
       6.444572011913e-05       1.989290172331e+07       1.989288418283e+07       2.599512951828e+07       0.000000000000e+00       1.988891276200e+07       6.161026602343e+06 
       6.510906597925e-05       1.989288493415e+07       1.989286703211e+07       2.598426995143e+07       0.000000000000e+00       1.988888985262e+07       6.161020732535e+06 
       6.577285515133e-05       1.989286796235e+07       1.989284969485e+07       2.597329605455e+07       0.000000000000e+00       1.988886669379e+07       6.161014799075e+06 
       6.643709240249e-05       1.989285080745e+07       1.989283217060e+07       2.596220766161e+07       0.000000000000e+00       1.988884328491e+07       6.161008801816e+06 
       6.710178250998e-05       1.989283346902e+07       1.989281445890e+07       2.595100460494e+07       0.000000000000e+00       1.988881962534e+07       6.161002740605e+06 
       6.776693026128e-05       1.989281594658e+07       1.989279655928e+07       2.593968671526e+07       0.000000000000e+00       1.988879571447e+07       6.160996615290e+06 
       6.843254045425e-05       1.989279823968e+07       1.989277847127e+07       2.592825382163e+07       0.000000000000e+00       1.988877155165e+07       6.160990425715e+06 
       6.909861789720e-05       1.989278034785e+07       1.989276019441e+07       2.591670575147e+07       0.000000000000e+00       1.988874713623e+07       6.160984171725e+06 
       6.976516740904e-05       1.989276227061e+07       1.989274172819e+07       2.590504233057e+07       0.000000000000e+00       1.988872246757e+07       6.160977853161e+06 
       7.043219381937e-05       1.989274400750e+07       1.989272307215e+07       2.589326338310e+07       0.000000000000e+00       1.988869754501e+07       6.160971469864e+06 
